# Wavelength	Beta
4400	-0.0450729
4401	-0.0330843
4402	-0.0182774
4403	-0.000322626
4404	0.0209931
4405	0.0456726
4406	0.0734028
4407	0.103466
4408	0.131783
4409	0.171416
4410	0.215448
4411	0.254603
4412	0.282739
4413	0.301664
4414	0.317964
4415	0.335622
4416	0.351334
4417	0.354485
4418	0.332857
4419	0.281925
4420	0.212028
4421	0.145739
4422	0.102812
4423	0.0871066
4424	0.0903185
4425	0.102324
4426	0.114461
4427	0.118816
4428	0.111381
4429	0.0981603
4430	0.0960324
4431	0.121652
4432	0.175766
4433	0.238148
4434	0.280395
4435	0.287327
4436	0.270132
4437	0.257207
4438	0.270728
4439	0.314911
4440	0.379451
4441	0.446439
4442	0.499377
4443	0.531665
4444	0.547019
4445	0.552647
4446	0.550485
4447	0.535475
4448	0.503592
4449	0.458935
4450	0.411494
4451	0.372181
4452	0.35082
4453	0.354336
4454	0.38362
4455	0.431758
4456	0.486709
4457	0.538575
4458	0.584614
4459	0.623934
4460	0.649771
4461	0.651628
4462	0.625236
4463	0.578235
4464	0.525068
4465	0.477451
4466	0.442075
4467	0.424181
4468	0.426732
4469	0.443589
4470	0.460231
4471	0.468188
4472	0.475821
4473	0.500155
4474	0.545513
4475	0.595858
4476	0.631509
4477	0.650463
4478	0.668476
4479	0.696034
4480	0.724563
4481	0.739053
4482	0.733706
4483	0.711854
4484	0.678919
4485	0.639145
4486	0.594165
4487	0.544406
4488	0.494917
4489	0.45591
4490	0.436776
4491	0.443088
4492	0.478149
4493	0.541674
4494	0.624648
4495	0.709515
4496	0.77659
4497	0.813607
4498	0.823804
4499	0.8269
4500	0.846421
4501	0.883313
4502	0.906387
4503	0.886651
4504	0.832601
4505	0.780264
4506	0.757614
4507	0.766868
4508	0.793693
4509	0.821853
4510	0.84076
4511	0.84392
4512	0.824748
4513	0.780916
4514	0.721975
4515	0.66627
4516	0.627687
4517	0.606502
4518	0.595927
4519	0.595363
4520	0.610075
4521	0.636098
4522	0.657914
4523	0.669127
4524	0.685338
4525	0.728336
4526	0.799261
4527	0.869402
4528	0.901843
4529	0.883612
4530	0.831877
4531	0.774622
4532	0.732852
4533	0.716032
4534	0.724529
4535	0.750519
4536	0.776557
4537	0.781238
4538	0.755609
4539	0.714018
4540	0.68386
4541	0.681397
4542	0.69829
4543	0.714719
4544	0.720369
4545	0.718949
4546	0.720218
4547	0.732203
4548	0.758669
4549	0.796779
4550	0.835199
4551	0.861471
4552	0.872592
4553	0.875441
4554	0.877789
4555	0.879641
4556	0.873051
4557	0.849909
4558	0.810629
4559	0.767005
4560	0.73506
4561	0.7232
4562	0.726868
4563	0.73506
4564	0.740183
4565	0.738738
4566	0.729128
4567	0.719513
4568	0.731982
4569	0.784691
4570	0.869425
4571	0.955979
4572	1.02055
4573	1.06279
4574	1.09407
4575	1.12039
4576	1.14352
4577	1.1669
4578	1.18798
4579	1.19482
4580	1.18018
4581	1.14972
4582	1.11777
4583	1.10001
4584	1.10206
4585	1.11013
4586	1.09833
4587	1.05885
4588	1.02165
4589	1.02377
4590	1.06857
4591	1.13351
4592	1.2049
4593	1.28712
4594	1.37913
4595	1.45873
4596	1.49703
4597	1.49132
4598	1.46259
4599	1.41372
4600	1.31956
4601	1.15813
4602	0.952626
4603	0.779906
4604	0.706563
4605	0.734134
4606	0.82036
4607	0.929362
4608	1.05467
4609	1.19506
4610	1.32576
4611	1.42011
4612	1.47954
4613	1.51965
4614	1.54055
4615	1.52931
4616	1.48176
4617	1.41101
4618	1.34306
4619	1.2962
4620	1.26771
4621	1.24873
4622	1.23626
4623	1.23123
4624	1.2386
4625	1.26486
4626	1.30888
4627	1.36449
4628	1.4252
4629	1.48578
4630	1.54647
4631	1.61393
4632	1.70197
4633	1.82918
4634	1.98538
4635	2.10394
4636	2.11511
4637	2.0288
4638	1.90262
4639	1.75976
4640	1.58793
4641	1.39063
4642	1.19535
4643	1.01225
4644	0.8387
4645	0.700295
4646	0.647768
4647	0.71129
4648	0.881344
4649	1.12477
4650	1.3939
4651	1.62453
4652	1.7693
4653	1.85726
4654	1.97605
4655	2.14765
4656	2.28896
4657	2.34213
4658	2.32062
4659	2.24722
4660	2.15431
4661	2.07785
4662	2.00461
4663	1.85939
4664	1.58838
4665	1.23006
4666	0.856083
4667	0.513758
4668	0.249038
4669	0.119202
4670	0.159492
4671	0.35337
4672	0.624073
4673	0.897034
4674	1.16135
4675	1.41802
4676	1.63614
4677	1.78912
4678	1.87567
4679	1.89689
4680	1.86567
4681	1.82203
4682	1.81354
4683	1.87223
4684	1.99749
4685	2.15087
4686	2.27531
4687	2.31903
4688	2.24336
4689	2.05812
4690	1.84917
4691	1.68261
4692	1.50699
4693	1.23205
4694	0.890189
4695	0.594937
4696	0.393557
4697	0.268832
4698	0.208364
4699	0.233894
4700	0.363399
4701	0.554438
4702	0.730465
4703	0.857613
4704	0.958008
4705	1.08654
4706	1.28489
4707	1.5376
4708	1.77008
4709	1.89499
4710	1.89538
4711	1.83111
4712	1.75664
4713	1.68621
4714	1.60413
4715	1.48616
4716	1.33112
4717	1.17689
4718	1.06243
4719	0.986565
4720	0.929467
4721	0.890352
4722	0.8684
4723	0.830612
4724	0.727334
4725	0.552721
4726	0.360693
4727	0.21752
4728	0.170959
4729	0.23538
4730	0.369766
4731	0.485044
4732	0.520692
4733	0.506672
4734	0.51572
4735	0.579361
4736	0.6711
4737	0.745774
4738	0.77768
4739	0.768704
4740	0.74668
4741	0.751495
4742	0.806071
4743	0.899995
4744	0.99599
4745	1.05379
4746	1.05524
4747	1.00763
4748	0.926772
4749	0.820885
4750	0.68058
4751	0.478995
4752	0.206429
4753	-0.103919
4754	-0.396067
4755	-0.614025
4756	-0.716012
4757	-0.698806
4758	-0.587945
4759	-0.406362
4760	-0.186651
4761	0.0232096
4762	0.201106
4763	0.351429
4764	0.461374
4765	0.50015
4766	0.458357
4767	0.359855
4768	0.249532
4769	0.172083
4770	0.137745
4771	0.117189
4772	0.0865394
4773	0.0692695
4774	0.116742
4775	0.250944
4776	0.4279
4777	0.562163
4778	0.60709
4779	0.575753
4780	0.491954
4781	0.378842
4782	0.270907
4783	0.192
4784	0.133758
4785	0.0707254
4786	-0.00620464
4787	-0.081935
4788	-0.135555
4789	-0.154853
4790	-0.146445
4791	-0.135385
4792	-0.146485
4793	-0.181007
4794	-0.214156
4795	-0.217388
4796	-0.181325
4797	-0.118015
4798	-0.0454223
4799	0.0286184
4800	0.106506
4801	0.188413
4802	0.26591
4803	0.324445
4804	0.343334
4805	0.303428
4806	0.205159
4807	0.0742261
4808	-0.0546729
4809	-0.15585
4810	-0.217107
4811	-0.243344
4812	-0.259148
4813	-0.284898
4814	-0.312575
4815	-0.315412
4816	-0.272105
4817	-0.188145
4818	-0.0919325
4819	-0.00506318
4820	0.0653924
4821	0.114716
4822	0.1404
4823	0.14498
4824	0.129865
4825	0.0896401
4826	0.0197532
4827	-0.0706287
4828	-0.161107
4829	-0.233523
4830	-0.27757
4831	-0.287557
4832	-0.262694
4833	-0.210331
4834	-0.140249
4835	-0.0576742
4836	0.0331916
4837	0.122195
4838	0.195988
4839	0.246932
4840	0.272632
4841	0.269226
4842	0.234551
4843	0.177728
4844	0.116595
4845	0.064178
4846	0.0212002
4847	-0.0173634
4848	-0.0538262
4849	-0.0874798
4850	-0.116857
4851	-0.140691
4852	-0.158524
4853	-0.171924
4854	-0.183756
4855	-0.194655
4856	-0.200777
4857	-0.196659
4858	-0.17968
4859	-0.150302
4860	-0.112621
4861	-0.0766087
4862	-0.0538175
4863	-0.0502051
4864	-0.065815
4865	-0.0974257
4866	-0.137968
4867	-0.175734
4868	-0.20075
4869	-0.214127
4870	-0.224592
4871	-0.234793
4872	-0.237846
4873	-0.229719
4874	-0.217869
4875	-0.212142
4876	-0.21154
4877	-0.20505
4878	-0.18436
4879	-0.153643
4880	-0.126849
4881	-0.114008
4882	-0.112511
4883	-0.112809
4884	-0.108793
4885	-0.0998085
4886	-0.0854083
4887	-0.064614
4888	-0.0412044
4889	-0.0250135
4890	-0.0242962
4891	-0.0381596
4892	-0.0579139
4893	-0.0746496
4894	-0.0839498
4895	-0.0849142
4896	-0.0798543
4897	-0.0757713
4898	-0.0788626
4899	-0.0877331
4900	-0.0973039
4901	-0.106505
4902	-0.11826
4903	-0.134357
4904	-0.153644
4905	-0.173881
4906	-0.192778
4907	-0.207361
4908	-0.214555
4909	-0.213706
4910	-0.205982
4911	-0.191481
4912	-0.171016
4913	-0.150311
4914	-0.139383
4915	-0.145904
4916	-0.16776
4917	-0.194009
4918	-0.213487
4919	-0.220807
4920	-0.21697
4921	-0.206754
4922	-0.193831
4923	-0.179927
4924	-0.169992
4925	-0.172143
4926	-0.187063
4927	-0.202086
4928	-0.200053
4929	-0.174773
4930	-0.137847
4931	-0.109056
4932	-0.101268
4933	-0.114936
4934	-0.139381
4935	-0.15618
4936	-0.14942
4937	-0.116839
4938	-0.0706876
4939	-0.0309764
4940	-0.0140497
4941	-0.0241355
4942	-0.0566244
4943	-0.102957
4944	-0.151742
4945	-0.191532
4946	-0.215853
4947	-0.225945
4948	-0.228866
4949	-0.232992
4950	-0.242002
4951	-0.250001
4952	-0.244427
4953	-0.217882
4954	-0.175021
4955	-0.127396
4956	-0.0862209
4957	-0.0592362
4958	-0.0496991
4959	-0.0580892
4960	-0.0840552
4961	-0.122934
4962	-0.159463
4963	-0.172357
4964	-0.15258
4965	-0.114522
4966	-0.0804612
4967	-0.0579591
4968	-0.0407691
4969	-0.0234818
4970	-0.0111834
4971	-0.0153793
4972	-0.0394661
4973	-0.0720372
4974	-0.0983123
4975	-0.113967
4976	-0.12557
4977	-0.139954
4978	-0.155979
4979	-0.164659
4980	-0.158638
4981	-0.141532
4982	-0.122882
4983	-0.107393
4984	-0.0925604
4985	-0.0764079
4986	-0.0624899
4987	-0.0562531
4988	-0.0595015
4989	-0.0689178
4990	-0.0802645
4991	-0.0928101
4992	-0.108228
4993	-0.12319
4994	-0.124685
4995	-0.105596
4996	-0.0800168
4997	-0.0670813
4998	-0.0767301
4999	-0.10771
5000	-0.146248
5001	-0.169847
5002	-0.171307
5003	-0.166528
5004	-0.16617
5005	-0.167943
5006	-0.167928
5007	-0.168339
5008	-0.172344
5009	-0.175394
5010	-0.167501
5011	-0.147065
5012	-0.125242
5013	-0.108688
5014	-0.0935183
5015	-0.0756681
5016	-0.06172
5017	-0.0636785
5018	-0.0844271
5019	-0.115959
5020	-0.146784
5021	-0.169973
5022	-0.180503
5023	-0.176899
5024	-0.164038
5025	-0.14736
5026	-0.133062
5027	-0.128428
5028	-0.136931
5029	-0.155501
5030	-0.174717
5031	-0.182628
5032	-0.174465
5033	-0.165927
5034	-0.183297
5035	-0.236136
5036	-0.309245
5037	-0.372013
5038	-0.406465
5039	-0.418288
5040	-0.423991
5041	-0.438285
5042	-0.455942
5043	-0.439044
5044	-0.381216
5045	-0.321373
5046	-0.259738
5047	-0.170897
5048	-0.0696824
5049	-0.0170442
5050	-0.0406786
5051	-0.130032
5052	-0.235832
5053	-0.30586
5054	-0.320174
5055	-0.279583
5056	-0.209079
5057	-0.140622
5058	-0.0940213
5059	-0.077544
5060	-0.0932878
5061	-0.132684
5062	-0.177111
5063	-0.208126
5064	-0.206252
5065	-0.174692
5066	-0.148688
5067	-0.153108
5068	-0.176574
5069	-0.197367
5070	-0.209678
5071	-0.189355
5072	-0.0372671
5073	0.234028
5074	0.363715
5075	0.353838
5076	0.270237
5077	0.142521
5078	0.0132079
5079	-0.0995603
5080	-0.212508
5081	-0.368564
5082	-0.578006
5083	-0.705346
5084	-0.660877
5085	-0.544995
5086	-0.427812
5087	-0.339863
5088	-0.294527
5089	-0.26701
5090	-0.225467
5091	-0.173763
5092	-0.129647
5093	-0.101878
5094	-0.0971843
5095	-0.134324
5096	-0.216403
5097	-0.300797
5098	-0.344585
5099	-0.302355
5100	-0.161298
5101	0.00986349
5102	0.133069
5103	0.171137
5104	0.0912153
5105	-0.0658425
5106	-0.17081
5107	-0.196277
5108	-0.188087
5109	-0.188672
5110	-0.230526
5111	-0.330602
5112	-0.409172
5113	-0.373788
5114	-0.290663
5115	-0.192621
5116	-0.0605869
5117	0.108242
5118	0.266363
5119	0.341051
5120	0.338367
5121	0.32845
5122	0.343334
5123	0.369192
5124	0.392385
5125	0.429191
5126	0.489199
5127	0.531428
5128	0.519765
5129	0.466137
5130	0.337982
5131	0.12518
5132	-0.0386767
5133	-0.0991033
5134	-0.116333
5135	-0.171707
5136	-0.298685
5137	-0.392383
5138	-0.424145
5139	-0.429158
5140	-0.411465
5141	-0.351367
5142	-0.26611
5143	-0.223545
5144	-0.261196
5145	-0.349856
5146	-0.412017
5147	-0.403283
5148	-0.278629
5149	-0.0766307
5150	0.0613146
5151	0.0798254
5152	-0.000527435
5153	-0.127887
5154	-0.205829
5155	-0.225444
5156	-0.239012
5157	-0.274467
5158	-0.33821
5159	-0.414498
5160	-0.424883
5161	-0.281971
5162	-0.0793611
5163	0.0492391
5164	0.103067
5165	0.123516
5166	0.143558
5167	0.171526
5168	0.191192
5169	0.197988
5170	0.211297
5171	0.217005
5172	0.16288
5173	0.0510206
5174	-0.0648209
5175	-0.155254
5176	-0.185332
5177	-0.130828
5178	-0.0394376
5179	0.00333019
5180	-0.0423506
5181	-0.15834
5182	-0.259589
5183	-0.273916
5184	-0.207514
5185	-0.0926707
5186	0.00900049
5187	0.0278998
5188	-0.0168561
5189	-0.0685203
5190	-0.108721
5191	-0.144333
5192	-0.167889
5193	-0.171831
5194	-0.169144
5195	-0.175187
5196	-0.191064
5197	-0.198502
5198	-0.181652
5199	-0.127428
5200	-0.0259014
5201	0.114386
5202	0.253769
5203	0.347935
5204	0.396488
5205	0.426133
5206	0.454208
5207	0.485616
5208	0.521053
5209	0.556061
5210	0.580577
5211	0.568722
5212	0.453377
5213	0.186666
5214	-0.116378
5215	-0.354088
5216	-0.491749
5217	-0.499127
5218	-0.42952
5219	-0.35434
5220	-0.27973
5221	-0.156765
5222	0.0122729
5223	0.15318
5224	0.23204
5225	0.23233
5226	0.155587
5227	0.0130866
5228	-0.156346
5229	-0.258133
5230	-0.299809
5231	-0.327844
5232	-0.340625
5233	-0.323519
5234	-0.283104
5235	-0.222277
5236	-0.126162
5237	0.0345858
5238	0.269631
5239	0.506233
5240	0.641465
5241	0.622454
5242	0.490595
5243	0.363221
5244	0.281215
5245	0.225281
5246	0.170517
5247	0.0978935
5248	-0.0014439
5249	-0.104064
5250	-0.172948
5251	-0.203452
5252	-0.186357
5253	-0.0915982
5254	0.0307899
5255	0.0746933
5256	0.0367302
5257	-0.0288931
5258	-0.0721688
5259	-0.0721921
5260	-0.039767
5261	0.0169419
5262	0.0849186
5263	0.144032
5264	0.188428
5265	0.213458
5266	0.214651
5267	0.204685
5268	0.1966
5269	0.189091
5270	0.176836
5271	0.160894
5272	0.144337
5273	0.13013
5274	0.120941
5275	0.1166
5276	0.114359
5277	0.111299
5278	0.106866
5279	0.102249
5280	0.0971974
5281	0.0898612
5282	0.0799059
5283	0.0691218
5284	0.0591228
5285	0.0500809
5286	0.0414687
5287	0.0332454
5288	0.0261683
5289	0.0212338
5290	0.0187408
5291	0.0181045
5292	0.0184468
5293	0.0190142
5294	0.0193693
5295	0.0195214
5296	0.0197736
5297	0.0203203
5298	0.0210148
5299	0.0215265
5300	0.0216112
5301	0.0212511
5302	0.0206041
5303	0.0198132
5304	0.0188716
5305	0.0176661
5306	0.0161306
5307	0.0143049
5308	0.0122578
5309	0.0100042
5310	0.00748046
5311	0.00459486
5312	0.00132761
5313	-0.00220004
5314	-0.00571094
5315	-0.00876719
5316	-0.0108953
5317	-0.011939
5318	-0.0122375
5319	-0.0122896
5320	-0.0123857
5321	-0.0126911
5322	-0.0134558
5323	-0.0148135
5324	-0.016455
5325	-0.0179062
5326	-0.0192806
5327	-0.021263
5328	-0.0240764
5329	-0.0270978
5330	-0.0295615
5331	-0.0309908
5332	-0.0310535
5333	-0.0297552
5334	-0.0278056
5335	-0.0261884
5336	-0.025317
5337	-0.0246008
5338	-0.0234747
5339	-0.0225085
5340	-0.0219859
5341	-0.0209639
5342	-0.0190291
5343	-0.0175884
5344	-0.0184316
5345	-0.0214339
5346	-0.0240954
5347	-0.0237837
5348	-0.0204055
5349	-0.0162358
5350	-0.0135609
5351	-0.0131754
5352	-0.0137667
5353	-0.0130486
5354	-0.0110288
5355	-0.00985262
5356	-0.0094268
5357	-0.00641532
5358	0.00108413
5359	0.0110825
5360	0.0222277
5361	0.0375603
5362	0.0607311
5363	0.0892721
5364	0.116367
5365	0.138543
5366	0.158241
5367	0.180385
5368	0.207965
5369	0.241661
5370	0.281471
5371	0.321575
5372	0.343954
5373	0.332855
5374	0.298234
5375	0.262375
5376	0.240693
5377	0.243579
5378	0.27706
5379	0.335088
5380	0.381655
5381	0.352657
5382	0.26479
5383	0.20021
5384	0.183746
5385	0.222168
5386	0.334221
5387	0.541166
5388	0.766755
5389	0.699756
5390	0.417185
5391	0.229271
5392	0.142346
5393	0.104594
5394	0.0891467
5395	0.0860701
5396	0.0974625
5397	0.137396
5398	0.165661
5399	0.126478
5400	0.0900603
5401	0.0721757
5402	0.0665858
5403	0.0686162
5404	0.075711
5405	0.0863966
5406	0.0967316
5407	0.0906773
5408	0.0565352
5409	0.0282173
5410	0.0138539
5411	0.00719336
5412	0.00595452
5413	0.00930406
5414	0.0167991
5415	0.0293036
5416	0.047904
5417	0.0596217
5418	0.0533469
5419	0.0433846
5420	0.0346246
5421	0.0284804
5422	0.0298321
5423	0.0467388
5424	0.0929523
5425	0.190866
5426	0.283119
5427	0.257407
5428	0.227525
5429	0.23965
5430	0.286973
5431	0.380337
5432	0.588809
5433	1.17109
5434	3.06476
5435	6.91101
5436	6.55127
5437	4.99483
5438	4.66569
5439	3.32121
5440	0.360361
5441	-0.148133
5442	-0.20124
5443	-0.19217
5444	-0.169201
5445	-0.153791
5446	-0.162303
5447	-0.194241
5448	-0.231737
5449	-0.240784
5450	-0.203879
5451	-0.160154
5452	-0.136763
5453	-0.127861
5454	-0.124675
5455	-0.122065
5456	-0.108427
5457	-0.0375588
5458	0.354992
5459	1.39391
5460	1.22465
5461	0.931115
5462	0.895078
5463	1.25731
5464	2.52192
5465	4.25312
5466	3.22817
5467	1.69819
5468	0.805378
5469	0.308184
5470	-0.0213862
5471	-0.167081
5472	-0.188196
5473	-0.200956
5474	-0.22072
5475	-0.237834
5476	-0.24903
5477	-0.233336
5478	-0.0297792
5479	0.152255
5480	0.13952
5481	0.0983559
5482	0.063115
5483	0.0400699
5484	0.026078
5485	0.00544175
5486	-0.0617766
5487	-0.233425
5488	-0.32341
5489	-0.252677
5490	-0.188307
5491	-0.142535
5492	-0.104767
5493	-0.0756934
5494	-0.063255
5495	-0.0634022
5496	-0.0366524
5497	0.0298402
5498	0.0769642
5499	0.0804588
5500	0.047566
5501	-0.00734783
5502	-0.0542418
5503	-0.0627318
5504	0.0122274
5505	0.27906
5506	0.846643
5507	1.78998
5508	3.03471
5509	4.28739
5510	5.13188
5511	5.11783
5512	4.44968
5513	3.78079
5514	3.25808
5515	2.74695
5516	2.13602
5517	1.39218
5518	0.657041
5519	0.139696
5520	-0.0955536
5521	-0.0238474
5522	0.462371
5523	1.42029
5524	2.53553
5525	3.19449
5526	3.2926
5527	3.1952
5528	3.07788
5529	2.82953
5530	2.29812
5531	1.4513
5532	0.256164
5533	-1.03201
5534	-2.04919
5535	-2.722
5536	-3.08362
5537	-3.06626
5538	-2.50022
5539	-1.31212
5540	0.201504
5541	1.52956
5542	2.53594
5543	3.42309
5544	4.27601
5545	4.96158
5546	5.30298
5547	5.07111
5548	4.10485
5549	2.82763
5550	1.83941
5551	1.34503
5552	1.28969
5553	1.57264
5554	2.16831
5555	3.10643
5556	4.29638
5557	5.48393
5558	6.48176
5559	7.24957
5560	7.68337
5561	7.71774
5562	7.57531
5563	7.50878
5564	7.41427
5565	6.95822
5566	6.10844
5567	5.11927
5568	4.18324
5569	3.35061
5570	2.57945
5571	1.78558
5572	0.9522
5573	0.248375
5574	-0.0650039
5575	0.102649
5576	0.62419
5577	1.32207
5578	2.18764
5579	3.32826
5580	4.5668
5581	5.38077
5582	5.48658
5583	5.14485
5584	4.84871
5585	4.90126
5586	5.26251
5587	5.69963
5588	6.01514
5589	6.22668
5590	6.52939
5591	7.0396
5592	7.57211
5593	7.79536
5594	7.61602
5595	7.17918
5596	6.51955
5597	5.56843
5598	4.41748
5599	3.35328
5600	2.6944
5601	2.63845
5602	3.16413
5603	4.07881
5604	5.12614
5605	6.04972
5606	6.67549
5607	6.91583
5608	6.66157
5609	5.88666
5610	4.83502
5611	3.85126
5612	2.99203
5613	2.13328
5614	1.41345
5615	1.12579
5616	1.34675
5617	1.95021
5618	2.79246
5619	3.7966
5620	4.8763
5621	5.84059
5622	6.54408
5623	6.97974
5624	7.10122
5625	6.7926
5626	6.08223
5627	5.18215
5628	4.29058
5629	3.49889
5630	2.92987
5631	2.69672
5632	2.80627
5633	3.23545
5634	4.01505
5635	5.19018
5636	6.61315
5637	7.90694
5638	8.78014
5639	9.24122
5640	9.41712
5641	9.33118
5642	8.99372
5643	8.5362
5644	7.91076
5645	6.8001
5646	5.40994
5647	4.34372
5648	3.75535
5649	3.48943
5650	3.40652
5651	3.43121
5652	3.50758
5653	3.58724
5654	3.66749
5655	3.80801
5656	4.05542
5657	4.37741
5658	4.68543
5659	4.89031
5660	4.92966
5661	4.80135
5662	4.59931
5663	4.44995
5664	4.39322
5665	4.3871
5666	4.40422
5667	4.45892
5668	4.5494
5669	4.67047
5670	4.88075
5671	5.25786
5672	5.77211
5673	6.2882
5674	6.71763
5675	7.07641
5676	7.34091
5677	7.39621
5678	7.21786
5679	6.98315
5680	6.86431
5681	6.80113
5682	6.58514
5683	6.12731
5684	5.56159
5685	5.03536
5686	4.60008
5687	4.30242
5688	4.20101
5689	4.29281
5690	4.50601
5691	4.78711
5692	5.12085
5693	5.5183
5694	5.98102
5695	6.45947
5696	6.81073
5697	6.85124
5698	6.51661
5699	5.94165
5700	5.23149
5701	4.34971
5702	3.33201
5703	2.3893
5704	1.77292
5705	1.60245
5706	1.85094
5707	2.41071
5708	3.1682
5709	4.00236
5710	4.79849
5711	5.45994
5712	5.92544
5713	6.19746
5714	6.30531
5715	6.20667
5716	5.77107
5717	4.98618
5718	4.10272
5719	3.43551
5720	3.11982
5721	3.1159
5722	3.31438
5723	3.60223
5724	3.88977
5725	4.21123
5726	4.78685
5727	5.78075
5728	6.9636
5729	7.92743
5730	8.59925
5731	9.22064
5732	9.97222
5733	10.7887
5734	11.4726
5735	11.8552
5736	11.8088
5737	11.2002
5738	9.99746
5739	8.37092
5740	6.53828
5741	4.64704
5742	2.88392
5743	1.50269
5744	0.640244
5745	0.258262
5746	0.233841
5747	0.413301
5748	0.593542
5749	0.587955
5750	0.400635
5751	0.231862
5752	0.255511
5753	0.47973
5754	0.83083
5755	1.24849
5756	1.67087
5757	1.95252
5758	1.95211
5759	1.70688
5760	1.43281
5761	1.30744
5762	1.36336
5763	1.50443
5764	1.57007
5765	1.44501
5766	1.15979
5767	0.838095
5768	0.542728
5769	0.253366
5770	-0.031385
5771	-0.238991
5772	-0.322762
5773	-0.339821
5774	-0.392024
5775	-0.471522
5776	-0.474217
5777	-0.338806
5778	-0.0969523
5779	0.173004
5780	0.390907
5781	0.506051
5782	0.530969
5783	0.529753
5784	0.544713
5785	0.545273
5786	0.467164
5787	0.281792
5788	0.0264882
5789	-0.215166
5790	-0.348891
5791	-0.317864
5792	-0.141627
5793	0.0829551
5794	0.225428
5795	0.194533
5796	-0.005928
5797	-0.270271
5798	-0.465568
5799	-0.529008
5800	-0.50081
5801	-0.471051
5802	-0.511425
5803	-0.614941
5804	-0.703017
5805	-0.693529
